# TOPAS Version: 3.9
# Parameter File: BasicParameters.txt
# Results for scorer: MyScorer
# Scored in component: MyBox
# X in 10 bins of 2 cm
# Y in 10 bins of 2 cm
# Z in 10 bins of 2 cm
# DoseToMedium ( Gy ) : Sum   
0, 0, 0, 1.613183753246261e-10
0, 0, 1, 4.568240230540255e-11
0, 0, 2, 1.801703647386077e-10
0, 0, 3, 2.513806107717897e-10
0, 0, 4, 2.874624427384731e-10
0, 0, 5, 3.731443209975538e-10
0, 0, 6, 7.264159274100734e-10
0, 0, 7, 4.612747961374453e-09
0, 0, 8, 6.698174015440372e-09
0, 0, 9, 5.632742272609903e-09
0, 1, 0, 2.152121258980344e-10
0, 1, 1, 2.003517907134267e-10
0, 1, 2, 3.264423176219111e-10
0, 1, 3, 1.783196784677088e-10
0, 1, 4, 2.383949426754128e-10
0, 1, 5, 2.78425754673961e-10
0, 1, 6, 8.96793639348914e-10
0, 1, 7, 4.880079451652364e-09
0, 1, 8, 7.232664245293563e-09
0, 1, 9, 7.965423876044042e-09
0, 2, 0, 1.14064140077641e-10
0, 2, 1, 1.210861272360475e-10
0, 2, 2, 8.130857098720412e-12
0, 2, 3, 3.098663270417745e-10
0, 2, 4, 2.645766106201819e-10
0, 2, 5, 3.186373664920694e-10
0, 2, 6, 5.084663246002208e-10
0, 2, 7, 4.676431242245371e-09
0, 2, 8, 7.285399838963258e-09
0, 2, 9, 6.612922653914666e-09
0, 3, 0, 1.905211405306417e-10
0, 3, 1, 1.015596287623488e-10
0, 3, 2, 8.418978708624181e-11
0, 3, 3, 8.399712869699982e-11
0, 3, 4, 2.670314802610818e-10
0, 3, 5, 1.396584237145504e-10
0, 3, 6, 8.306984544681484e-10
0, 3, 7, 4.695677180421853e-09
0, 3, 8, 6.398495955295402e-09
0, 3, 9, 5.699476446352492e-09
0, 4, 0, 1.45060942424724e-11
0, 4, 1, 2.599529619340402e-11
0, 4, 2, 1.407839123057641e-10
0, 4, 3, 3.305543061493665e-10
0, 4, 4, 2.3256747916367e-10
0, 4, 5, 2.547592692359046e-10
0, 4, 6, 6.322755097265542e-10
0, 4, 7, 4.734196146216618e-09
0, 4, 8, 6.609749636510287e-09
0, 4, 9, 5.720640405826316e-09
0, 5, 0, 8.133604206816969e-11
0, 5, 1, 1.304215624386984e-10
0, 5, 2, 9.082194718512682e-11
0, 5, 3, 4.947747767047872e-11
0, 5, 4, 7.924725459185211e-11
0, 5, 5, 2.10352832374916e-10
0, 5, 6, 9.732452621591392e-10
0, 5, 7, 5.262661861848983e-09
0, 5, 8, 7.449704853002004e-09
0, 5, 9, 7.421023795473047e-09
0, 6, 0, 1.421194412154492e-10
0, 6, 1, 9.549713103629287e-11
0, 6, 2, 1.495206042312347e-10
0, 6, 3, 8.077441493448134e-12
0, 6, 4, 2.142669375260198e-10
0, 6, 5, 1.541659022663566e-10
0, 6, 6, 1.023546580825041e-09
0, 6, 7, 5.052791518522781e-09
0, 6, 8, 7.072665120233523e-09
0, 6, 9, 7.844834115644517e-09
0, 7, 0, 1.417701928074777e-10
0, 7, 1, 1.731591120490705e-10
0, 7, 2, 1.462662352347266e-10
0, 7, 3, 1.328456372684528e-10
0, 7, 4, 8.824342645485928e-11
0, 7, 5, 1.232522278682424e-10
0, 7, 6, 7.121813694332957e-10
0, 7, 7, 4.984053170176139e-09
0, 7, 8, 6.977491029402927e-09
0, 7, 9, 6.900241267260299e-09
0, 8, 0, 3.921227231806768e-11
0, 8, 1, 3.813074855862908e-11
0, 8, 2, 1.487438783254191e-10
0, 8, 3, 1.143414529725106e-10
0, 8, 4, 2.060316778296212e-10
0, 8, 5, 5.633068664301355e-11
0, 8, 6, 8.609331580977653e-10
0, 8, 7, 5.042151585143984e-09
0, 8, 8, 7.296184545424467e-09
0, 8, 9, 7.253949885210886e-09
0, 9, 0, 8.218208752408529e-11
0, 9, 1, 1.18522552883249e-10
0, 9, 2, 1.723237247341913e-10
0, 9, 3, 2.181134266254769e-11
0, 9, 4, 7.786116196228932e-11
0, 9, 5, 1.570425456343116e-10
0, 9, 6, 7.423533454620213e-10
0, 9, 7, 4.043930523778272e-09
0, 9, 8, 5.779734024713434e-09
0, 9, 9, 5.990406837241835e-09
1, 0, 0, 1.322012360693847e-10
1, 0, 1, 5.691128124318823e-11
1, 0, 2, 1.175027575239795e-10
1, 0, 3, 1.031527641082164e-11
1, 0, 4, 3.44886515180054e-11
1, 0, 5, 9.949644580453665e-11
1, 0, 6, 8.467700429726222e-10
1, 0, 7, 5.02717645289863e-09
1, 0, 8, 7.723636841205916e-09
1, 0, 9, 7.412194413802808e-09
1, 1, 0, 6.508796539933526e-12
1, 1, 1, 2.222653311401146e-11
1, 1, 2, 5.330200517073003e-11
1, 1, 3, 2.651836909783878e-11
1, 1, 4, 9.117736947394928e-12
1, 1, 5, 1.659082038418802e-10
1, 1, 6, 8.291613506905549e-10
1, 1, 7, 6.270588492895968e-09
1, 1, 8, 7.977456917274139e-09
1, 1, 9, 8.1109154947967e-09
1, 2, 0, 1.344365417599303e-11
1, 2, 1, 4.219109436820467e-11
1, 2, 2, 3.432186132523718e-11
1, 2, 3, 6.572167116081218e-11
1, 2, 4, 1.148745074758262e-11
1, 2, 5, 5.767895536190615e-11
1, 2, 6, 7.535259638480341e-10
1, 2, 7, 6.666003304900414e-09
1, 2, 8, 9.271917456032952e-09
1, 2, 9, 7.628206510901236e-09
1, 3, 0, 2.661313010243749e-11
1, 3, 1, 1.875847949195375e-10
1, 3, 2, 5.378557321744637e-11
1, 3, 3, 7.68016206187383e-11
1, 3, 4, 3.085031882732459e-11
1, 3, 5, 5.501158209519907e-11
1, 3, 6, 1.079813127802254e-09
1, 3, 7, 6.913741135150531e-09
1, 3, 8, 7.290465120490808e-09
1, 3, 9, 6.874461888628502e-09
1, 4, 0, 6.140916247732164e-11
1, 4, 1, 4.849197432488239e-11
1, 4, 2, 1.554084291810476e-11
1, 4, 3, 2.12332911669888e-11
1, 4, 4, 7.53063028602341e-11
1, 4, 5, 9.955210267253989e-11
1, 4, 6, 1.325963561171761e-09
1, 4, 7, 7.386460776359627e-09
1, 4, 8, 8.733981538000535e-09
1, 4, 9, 7.570032600767718e-09
1, 5, 0, 4.023481200987611e-11
1, 5, 1, 1.159045776022438e-11
1, 5, 2, 6.108868185611405e-12
1, 5, 3, 5.714477502305471e-11
1, 5, 4, 2.924365610779134e-11
1, 5, 5, 5.524124907507755e-11
1, 5, 6, 5.906788946852259e-10
1, 5, 7, 5.027526395195991e-09
1, 5, 8, 7.144983715789976e-09
1, 5, 9, 6.974143040849867e-09
1, 6, 0, 5.275671219329148e-11
1, 6, 1, 3.290478306494649e-11
1, 6, 2, 7.740204310824339e-11
1, 6, 3, 1.279653327745933e-10
1, 6, 4, 5.493511895382497e-11
1, 6, 5, 3.683588850611486e-11
1, 6, 6, 1.224663037646678e-09
1, 6, 7, 7.463994755596559e-09
1, 6, 8, 8.853471733516471e-09
1, 6, 9, 7.360217324503537e-09
1, 7, 0, 1.819194794805412e-11
1, 7, 1, 6.464311030907055e-11
1, 7, 2, 3.473776127860262e-11
1, 7, 3, 1.534882811127236e-11
1, 7, 4, 1.691725405594813e-11
1, 7, 5, 9.240912896002484e-11
1, 7, 6, 5.697170513130345e-10
1, 7, 7, 5.071671083101137e-09
1, 7, 8, 7.273525337581077e-09
1, 7, 9, 6.808777541777999e-09
1, 8, 0, 3.404714357668759e-11
1, 8, 1, 5.44426344284421e-11
1, 8, 2, 1.501481716736919e-10
1, 8, 3, 2.79301599209747e-11
1, 8, 4, 7.074101287390944e-12
1, 8, 5, 2.519353649310663e-11
1, 8, 6, 1.413988037768377e-09
1, 8, 7, 6.677228991947004e-09
1, 8, 8, 8.810907559109182e-09
1, 8, 9, 7.002220581142637e-09
1, 9, 0, 1.56299764797474e-10
1, 9, 1, 1.286326184457565e-10
1, 9, 2, 2.021262740514729e-10
1, 9, 3, 1.925451187378968e-10
1, 9, 4, 1.370537572320529e-10
1, 9, 5, 1.110192840436675e-10
1, 9, 6, 7.513918931500996e-10
1, 9, 7, 4.628030847442233e-09
1, 9, 8, 7.137234359078093e-09
1, 9, 9, 7.092419540555284e-09
2, 0, 0, 1.031788543492951e-10
2, 0, 1, 2.5872901043833e-10
2, 0, 2, 2.244251035010691e-10
2, 0, 3, 5.430503616232762e-11
2, 0, 4, 2.393477083195705e-10
2, 0, 5, 2.690015432627035e-10
2, 0, 6, 6.484026093822592e-10
2, 0, 7, 4.597898062286276e-09
2, 0, 8, 6.834859345161703e-09
2, 0, 9, 7.260476664328053e-09
2, 1, 0, 3.776258385851383e-12
2, 1, 1, 4.171110332129579e-11
2, 1, 2, 4.743237053128624e-11
2, 1, 3, 5.108757861194135e-11
2, 1, 4, 5.763027208227633e-11
2, 1, 5, 3.507351353793098e-11
2, 1, 6, 1.395718651764355e-09
2, 1, 7, 5.990242080144981e-09
2, 1, 8, 8.649351457279408e-09
2, 1, 9, 8.533797668519583e-09
2, 2, 0, 1.494174922678226e-11
2, 2, 1, 1.497725554688856e-11
2, 2, 2, 5.256180560242463e-11
2, 2, 3, 5.764230065485876e-11
2, 2, 4, 3.182955288227873e-11
2, 2, 5, 5.212028378331901e-11
2, 2, 6, 1.345829336862892e-09
2, 2, 7, 6.964938403797305e-09
2, 2, 8, 9.37928845701208e-09
2, 2, 9, 8.638717297060339e-09
2, 3, 0, 4.083641758079182e-11
2, 3, 1, 3.059366648905382e-11
2, 3, 2, 3.150776861637894e-11
2, 3, 3, 5.873218578145156e-11
2, 3, 4, 1.861864967755977e-10
2, 3, 5, 3.885310476126058e-11
2, 3, 6, 1.405919269892308e-09
2, 3, 7, 7.407060298447732e-09
2, 3, 8, 8.373523208149436e-09
2, 3, 9, 8.121680217243465e-09
2, 4, 0, 8.619732531911506e-12
2, 4, 1, 6.18152404263661e-11
2, 4, 2, 4.283973176200107e-11
2, 4, 3, 6.652677020380082e-11
2, 4, 4, 8.537905799022028e-11
2, 4, 5, 3.282956892447508e-11
2, 4, 6, 1.083181544458967e-09
2, 4, 7, 7.967626558524898e-09
2, 4, 8, 9.268188883027051e-09
2, 4, 9, 7.301371951484725e-09
2, 5, 0, 5.288084900523238e-11
2, 5, 1, 2.218804133480301e-11
2, 5, 2, 3.699246117760957e-11
2, 5, 3, 8.067963658264787e-11
2, 5, 4, 5.879145087428483e-11
2, 5, 5, 8.167538867454027e-11
2, 5, 6, 1.112780312340078e-09
2, 5, 7, 6.442712585652544e-09
2, 5, 8, 9.414531376705781e-09
2, 5, 9, 8.877460544454152e-09
2, 6, 0, 3.249040619879295e-11
2, 6, 1, 4.314768681235037e-11
2, 6, 2, 5.2230910568829e-11
2, 6, 3, 3.116999366947759e-11
2, 6, 4, 1.397713333961548e-10
2, 6, 5, 1.515447350941557e-10
2, 6, 6, 1.013474193456432e-09
2, 6, 7, 7.173995619780271e-09
2, 6, 8, 8.8359710659347e-09
2, 6, 9, 7.438503146772746e-09
2, 7, 0, 1.061831386706125e-10
2, 7, 1, 1.356365800925241e-11
2, 7, 2, 7.352145975358937e-11
2, 7, 3, 2.309479690820737e-11
2, 7, 4, 7.172645116737542e-11
2, 7, 5, 1.480351258242862e-10
2, 7, 6, 1.249224723665066e-09
2, 7, 7, 6.949384623311516e-09
2, 7, 8, 7.832143822383841e-09
2, 7, 9, 6.167565125281271e-09
2, 8, 0, 7.098732712762512e-11
2, 8, 1, 3.121536362726829e-11
2, 8, 2, 1.246608927196746e-10
2, 8, 3, 1.351531647014736e-11
2, 8, 4, 2.609234876771449e-11
2, 8, 5, 3.985467511569141e-11
2, 8, 6, 8.492179737196182e-10
2, 8, 7, 6.617367098726845e-09
2, 8, 8, 7.77483677438795e-09
2, 8, 9, 7.83644260593519e-09
2, 9, 0, 1.221345160423715e-11
2, 9, 1, 4.793983265916069e-11
2, 9, 2, 5.328863435585807e-13
2, 9, 3, 3.790572022932537e-11
2, 9, 4, 8.992918389127968e-12
2, 9, 5, 1.25696869579528e-10
2, 9, 6, 7.120000145022232e-10
2, 9, 7, 4.766610661732784e-09
2, 9, 8, 5.942047742735213e-09
2, 9, 9, 5.943805003738589e-09
3, 0, 0, 2.290358458445496e-10
3, 0, 1, 1.980362263065416e-10
3, 0, 2, 2.563391721110975e-10
3, 0, 3, 5.087369067680036e-11
3, 0, 4, 1.089227250061775e-10
3, 0, 5, 9.0049932788272e-11
3, 0, 6, 7.378084809772645e-10
3, 0, 7, 4.774936446239053e-09
3, 0, 8, 7.011596192540992e-09
3, 0, 9, 7.909862098642861e-09
3, 1, 0, 2.581434371817792e-11
3, 1, 1, 1.71408772592363e-11
3, 1, 2, 7.550335356931726e-11
3, 1, 3, 1.063760815545045e-10
3, 1, 4, 4.056861790946442e-11
3, 1, 5, 1.08685152891419e-11
3, 1, 6, 9.818511559345211e-10
3, 1, 7, 8.377061710973521e-09
3, 1, 8, 9.028492620188899e-09
3, 1, 9, 7.217618946953053e-09
3, 2, 0, 6.519576545294115e-11
3, 2, 1, 7.750344810375509e-11
3, 2, 2, 8.118880567842268e-12
3, 2, 3, 4.752129939555871e-11
3, 2, 4, 1.053593878808101e-10
3, 2, 5, 1.366338708841397e-10
3, 2, 6, 7.020076187025381e-10
3, 2, 7, 6.67140742649508e-09
3, 2, 8, 7.055410478074009e-09
3, 2, 9, 6.752118864028489e-09
3, 3, 0, 1.060430285249048e-10
3, 3, 1, 3.798597200677101e-11
3, 3, 2, 2.972826151914632e-11
3, 3, 3, 3.590028274658152e-11
3, 3, 4, 5.778526268596096e-11
3, 3, 5, 2.398508648637776e-11
3, 3, 6, 1.345477951275598e-09
3, 3, 7, 6.419638154397944e-09
3, 3, 8, 7.904291443594502e-09
3, 3, 9, 6.838553723298446e-09
3, 4, 0, 3.705398834985552e-11
3, 4, 1, 2.746448381218958e-11
3, 4, 2, 6.478784869701215e-11
3, 4, 3, 2.617836850071775e-11
3, 4, 4, 8.229511516688603e-11
3, 4, 5, 1.444783043202946e-10
3, 4, 6, 1.064775934089823e-09
3, 4, 7, 7.075332764117093e-09
3, 4, 8, 8.753161750973959e-09
3, 4, 9, 7.973505411484894e-09
3, 5, 0, 5.069237044019737e-11
3, 5, 1, 8.586141519995039e-11
3, 5, 2, 1.842267831342337e-11
3, 5, 3, 4.728894706373943e-11
3, 5, 4, 7.532556522971134e-11
3, 5, 5, 2.343813199079392e-10
3, 5, 6, 1.435343732758554e-09
3, 5, 7, 7.264112422689095e-09
3, 5, 8, 8.269072537814282e-09
3, 5, 9, 8.353733704780097e-09
3, 6, 0, 3.102579391317528e-12
3, 6, 1, 3.360053554835041e-11
3, 6, 2, 3.701683057300009e-11
3, 6, 3, 1.413101718972243e-10
3, 6, 4, 9.141393891853866e-11
3, 6, 5, 1.065535437660969e-10
3, 6, 6, 9.930407607328107e-10
3, 6, 7, 7.4280954720507e-09
3, 6, 8, 8.809428742040382e-09
3, 6, 9, 8.072348123278061e-09
3, 7, 0, 5.759569557395317e-11
3, 7, 1, 2.791674877378192e-11
3, 7, 2, 5.273609327005602e-11
3, 7, 3, 4.489138574759188e-11
3, 7, 4, 2.203933043010142e-11
3, 7, 5, 5.768798633232208e-11
3, 7, 6, 8.046563415575747e-10
3, 7, 7, 6.664933938083095e-09
3, 7, 8, 6.325609813728761e-09
3, 7, 9, 5.529162017126055e-09
3, 8, 0, 9.014145332941759e-12
3, 8, 1, 1.595096103812477e-11
3, 8, 2, 1.197542065511925e-10
3, 8, 3, 6.361373233731982e-11
3, 8, 4, 8.465100148624671e-11
3, 8, 5, 8.819777547186547e-11
3, 8, 6, 8.779243998446873e-10
3, 8, 7, 5.777255118744051e-09
3, 8, 8, 7.398152757076559e-09
3, 8, 9, 7.253875722312841e-09
3, 9, 0, 9.077594578799086e-12
3, 9, 1, 2.67949117754851e-11
3, 9, 2, 3.095586287304997e-12
3, 9, 3, 5.240586610499864e-12
3, 9, 4, 1.519619013956586e-10
3, 9, 5, 1.394711568458717e-10
3, 9, 6, 6.979484212799036e-10
3, 9, 7, 4.906051120912025e-09
3, 9, 8, 7.519154188173616e-09
3, 9, 9, 7.966193038555502e-09
4, 0, 0, 1.386755016374863e-10
4, 0, 1, 3.466143205788086e-10
4, 0, 2, 1.583732173182639e-10
4, 0, 3, 6.86829152579671e-12
4, 0, 4, 1.317137093836962e-10
4, 0, 5, 2.636431177538423e-11
4, 0, 6, 9.763594377432128e-10
4, 0, 7, 5.278525172514037e-09
4, 0, 8, 7.511954613903526e-09
4, 0, 9, 7.62899521333793e-09
4, 1, 0, 3.792536423796733e-11
4, 1, 1, 1.068206356702461e-10
4, 1, 2, 1.37064581906543e-10
4, 1, 3, 4.121871594042759e-11
4, 1, 4, 8.977329296611103e-11
4, 1, 5, 5.950626796868974e-11
4, 1, 6, 9.947244139496547e-10
4, 1, 7, 6.174867284158836e-09
4, 1, 8, 9.269310652371132e-09
4, 1, 9, 7.343496477574263e-09
4, 2, 0, 4.657426527776565e-11
4, 2, 1, 3.487555730319336e-11
4, 2, 2, 1.559196938227814e-10
4, 2, 3, 3.491311753589521e-11
4, 2, 4, 1.176865271901306e-10
4, 2, 5, 1.416895628603143e-10
4, 2, 6, 9.628775554659796e-10
4, 2, 7, 6.697217003193146e-09
4, 2, 8, 7.394179490916031e-09
4, 2, 9, 6.817790776381116e-09
4, 3, 0, 1.311072084231313e-10
4, 3, 1, 1.031741983514856e-10
4, 3, 2, 8.726072642240013e-11
4, 3, 3, 5.417026202603203e-11
4, 3, 4, 3.061416051219901e-11
4, 3, 5, 9.044634485810832e-11
4, 3, 6, 1.068801491754812e-09
4, 3, 7, 7.900102794167196e-09
4, 3, 8, 8.512613725031315e-09
4, 3, 9, 7.05759939378936e-09
4, 4, 0, 1.823875495077232e-10
4, 4, 1, 1.78102310677275e-10
4, 4, 2, 4.283080834444064e-11
4, 4, 3, 1.449264319663968e-10
4, 4, 4, 9.94958282429792e-11
4, 4, 5, 1.14758154368122e-10
4, 4, 6, 7.124834611182962e-10
4, 4, 7, 7.153494241407543e-09
4, 4, 8, 7.752700703633764e-09
4, 4, 9, 6.997496360128252e-09
4, 5, 0, 1.013105658392854e-11
4, 5, 1, 7.332585233443822e-11
4, 5, 2, 5.675299639962272e-12
4, 5, 3, 1.142265587672497e-10
4, 5, 4, 1.095896845493272e-10
4, 5, 5, 4.592611013709558e-11
4, 5, 6, 1.24059884587524e-09
4, 5, 7, 6.327354640234262e-09
4, 5, 8, 9.46014644398474e-09
4, 5, 9, 9.575063408817641e-09
4, 6, 0, 1.884608268054588e-11
4, 6, 1, 1.402286065044223e-10
4, 6, 2, 1.451340714275773e-10
4, 6, 3, 9.921436588955501e-11
4, 6, 4, 2.868339073203163e-11
4, 6, 5, 4.665253600100172e-11
4, 6, 6, 9.750049656531701e-10
4, 6, 7, 6.509131900145348e-09
4, 6, 8, 8.919617044966799e-09
4, 6, 9, 7.543150104538654e-09
4, 7, 0, 2.926642608813701e-11
4, 7, 1, 5.137672579036412e-11
4, 7, 2, 4.943955661529387e-11
4, 7, 3, 2.263024490023469e-11
4, 7, 4, 3.776080489958922e-11
4, 7, 5, 2.322416044198139e-11
4, 7, 6, 1.037074648380099e-09
4, 7, 7, 6.825434439861056e-09
4, 7, 8, 7.395038803537091e-09
4, 7, 9, 7.289091108475532e-09
4, 8, 0, 1.483051702277915e-11
4, 8, 1, 6.337608823153706e-12
4, 8, 2, 4.408143641776441e-11
4, 8, 3, 1.955798370478767e-11
4, 8, 4, 4.706944209398323e-11
4, 8, 5, 2.036376449410238e-11
4, 8, 6, 6.10285377788955e-10
4, 8, 7, 5.757491372548884e-09
4, 8, 8, 8.052193578578226e-09
4, 8, 9, 6.719729661597285e-09
4, 9, 0, 3.46385203506272e-12
4, 9, 1, 5.506481989131506e-12
4, 9, 2, 6.896046234050601e-11
4, 9, 3, 7.300838406054666e-11
4, 9, 4, 1.008307326522129e-10
4, 9, 5, 1.642773972410083e-10
4, 9, 6, 7.407746638321555e-10
4, 9, 7, 4.528797337144397e-09
4, 9, 8, 6.141556152527983e-09
4, 9, 9, 6.17275164316311e-09
5, 0, 0, 1.224170504549038e-11
5, 0, 1, 1.906965384212977e-11
5, 0, 2, 4.123635113928437e-11
5, 0, 3, 1.498672366762044e-11
5, 0, 4, 1.441827993803324e-11
5, 0, 5, 8.878374424536872e-11
5, 0, 6, 4.990831636852988e-10
5, 0, 7, 4.041432077883655e-09
5, 0, 8, 6.297746324435138e-09
5, 0, 9, 6.320476586552104e-09
5, 1, 0, 9.489269613138784e-12
5, 1, 1, 4.478527965146029e-11
5, 1, 2, 8.28810978181771e-11
5, 1, 3, 9.014500257364944e-11
5, 1, 4, 1.114190475992594e-10
5, 1, 5, 5.726301724462424e-11
5, 1, 6, 9.037600667838319e-10
5, 1, 7, 6.084796666527836e-09
5, 1, 8, 8.463780787337782e-09
5, 1, 9, 7.803464541211724e-09
5, 2, 0, 4.891658605954419e-11
5, 2, 1, 1.4881255949728e-11
5, 2, 2, 8.270406581800671e-11
5, 2, 3, 2.244733218748074e-11
5, 2, 4, 3.254462324631113e-11
5, 2, 5, 3.701706302594587e-11
5, 2, 6, 1.111045810908706e-09
5, 2, 7, 5.837017091891994e-09
5, 2, 8, 8.4204279104938e-09
5, 2, 9, 6.742895131139903e-09
5, 3, 0, 5.231287972251586e-11
5, 3, 1, 9.854577570633793e-11
5, 3, 2, 5.055378858587201e-12
5, 3, 3, 1.06810824074266e-10
5, 3, 4, 4.207102721753841e-11
5, 3, 5, 5.259787050349019e-11
5, 3, 6, 1.084690448571735e-09
5, 3, 7, 6.712934652597369e-09
5, 3, 8, 8.819370123092085e-09
5, 3, 9, 7.737768648041765e-09
5, 4, 0, 7.873153518023202e-12
5, 4, 1, 7.205590291103903e-11
5, 4, 2, 9.134476508521061e-11
5, 4, 3, 6.398188229228552e-11
5, 4, 4, 7.605043678138301e-11
5, 4, 5, 1.527139248391762e-10
5, 4, 6, 1.478364208828964e-09
5, 4, 7, 7.062460394280379e-09
5, 4, 8, 8.641412030385709e-09
5, 4, 9, 7.208754926324445e-09
5, 5, 0, 2.020860041807016e-11
5, 5, 1, 1.582275109546227e-11
5, 5, 2, 5.16017853446904e-11
5, 5, 3, 1.288467943449945e-10
5, 5, 4, 6.864728230304706e-11
5, 5, 5, 6.167451965799486e-11
5, 5, 6, 1.335230370713703e-09
5, 5, 7, 7.798950818482808e-09
5, 5, 8, 9.281636792479731e-09
5, 5, 9, 6.674669261741428e-09
5, 6, 0, 3.10413500459461e-11
5, 6, 1, 3.673439677442936e-11
5, 6, 2, 1.718493056190873e-11
5, 6, 3, 4.807224063263504e-11
5, 6, 4, 3.635130391144159e-11
5, 6, 5, 6.785597778113939e-11
5, 6, 6, 8.514565164041699e-10
5, 6, 7, 6.580545885981337e-09
5, 6, 8, 7.865196494094562e-09
5, 6, 9, 8.016185049086744e-09
5, 7, 0, 5.913292772108392e-11
5, 7, 1, 4.815768617216776e-11
5, 7, 2, 1.628737075765052e-11
5, 7, 3, 1.382474083128082e-11
5, 7, 4, 9.505775333540356e-11
5, 7, 5, 4.005794654315942e-11
5, 7, 6, 9.201076012210763e-10
5, 7, 7, 6.628735338409797e-09
5, 7, 8, 8.629432279860794e-09
5, 7, 9, 7.500913667968234e-09
5, 8, 0, 5.504522879173912e-11
5, 8, 1, 2.518404755569303e-11
5, 8, 2, 6.405287324845466e-12
5, 8, 3, 1.693215186115982e-11
5, 8, 4, 5.487344606480704e-11
5, 8, 5, 2.762968846770075e-11
5, 8, 6, 9.800473765864126e-10
5, 8, 7, 6.315555189928546e-09
5, 8, 8, 8.116402661073607e-09
5, 8, 9, 6.596219570553785e-09
5, 9, 0, 1.440644686878656e-10
5, 9, 1, 2.315259615970344e-11
5, 9, 2, 3.834135439695352e-11
5, 9, 3, 1.544303435130345e-10
5, 9, 4, 4.837447456496058e-11
5, 9, 5, 1.431267084017751e-11
5, 9, 6, 6.451572609478262e-10
5, 9, 7, 4.774320494504991e-09
5, 9, 8, 7.373087917983412e-09
5, 9, 9, 6.542344888060825e-09
6, 0, 0, 1.807716823454264e-11
6, 0, 1, 1.254943371442607e-10
6, 0, 2, 1.380330294509236e-10
6, 0, 3, 1.886221595581716e-10
6, 0, 4, 8.988915167762457e-11
6, 0, 5, 1.528713267084925e-10
6, 0, 6, 5.019730187072469e-10
6, 0, 7, 3.330572262427722e-09
6, 0, 8, 4.873758729928568e-09
6, 0, 9, 5.212405174148671e-09
6, 1, 0, 5.543140165625848e-12
6, 1, 1, 8.603622675407152e-11
6, 1, 2, 4.384287724534808e-11
6, 1, 3, 4.906105730007049e-11
6, 1, 4, 1.077299534302245e-11
6, 1, 5, 6.409149599928554e-11
6, 1, 6, 8.484020153076699e-10
6, 1, 7, 5.337553066198097e-09
6, 1, 8, 7.08875758093086e-09
6, 1, 9, 6.308678468514017e-09
6, 2, 0, 6.999732043988516e-11
6, 2, 1, 1.096057758442903e-10
6, 2, 2, 1.331690591133139e-10
6, 2, 3, 2.041670131569528e-11
6, 2, 4, 2.011752049668747e-11
6, 2, 5, 5.788436396869656e-11
6, 2, 6, 7.995655249004585e-10
6, 2, 7, 6.763226867434469e-09
6, 2, 8, 9.161814418234826e-09
6, 2, 9, 8.34818614237065e-09
6, 3, 0, 8.359817005310077e-11
6, 3, 1, 4.903086270324764e-11
6, 3, 2, 8.580359339704913e-11
6, 3, 3, 5.712659859047342e-11
6, 3, 4, 7.184570993690187e-11
6, 3, 5, 9.74545860676912e-11
6, 3, 6, 9.612500795341816e-10
6, 3, 7, 7.323819328775016e-09
6, 3, 8, 8.230379044960046e-09
6, 3, 9, 8.041909360656518e-09
6, 4, 0, 6.095335174094441e-12
6, 4, 1, 4.615896900816985e-11
6, 4, 2, 6.238781019574091e-11
6, 4, 3, 3.80724375637076e-11
6, 4, 4, 5.63147896370797e-11
6, 4, 5, 2.491639707058457e-11
6, 4, 6, 1.036317809344212e-09
6, 4, 7, 7.171869320643509e-09
6, 4, 8, 7.966233894762809e-09
6, 4, 9, 7.723340189613737e-09
6, 5, 0, 4.487261950902877e-11
6, 5, 1, 4.506935623316277e-12
6, 5, 2, 1.926839070243158e-11
6, 5, 3, 6.449769190952637e-11
6, 5, 4, 1.861282135362519e-11
6, 5, 5, 1.972921270798622e-10
6, 5, 6, 7.667497747831931e-10
6, 5, 7, 5.814469794529487e-09
6, 5, 8, 7.509180832698803e-09
6, 5, 9, 7.033583049320669e-09
6, 6, 0, 2.982025390507737e-11
6, 6, 1, 6.83002005646971e-12
6, 6, 2, 7.092037027089937e-12
6, 6, 3, 5.809167383241665e-11
6, 6, 4, 9.557333396914558e-11
6, 6, 5, 3.641283108368754e-11
6, 6, 6, 7.856859052246534e-10
6, 6, 7, 6.69015420839969e-09
6, 6, 8, 7.764078269190122e-09
6, 6, 9, 6.226163584699407e-09
6, 7, 0, 2.547085632687018e-11
6, 7, 1, 1.326439218879427e-11
6, 7, 2, 1.050777867495079e-11
6, 7, 3, 2.897367415433116e-11
6, 7, 4, 2.872313498158974e-11
6, 7, 5, 7.550460257021996e-11
6, 7, 6, 8.337244783440667e-10
6, 7, 7, 6.346593917072596e-09
6, 7, 8, 6.790633833020365e-09
6, 7, 9, 6.883198455653883e-09
6, 8, 0, 1.325400509830099e-12
6, 8, 1, 9.646518306372087e-11
6, 8, 2, 3.592715534794788e-12
6, 8, 3, 1.766449139739557e-11
6, 8, 4, 3.868456943667553e-11
6, 8, 5, 8.553241448439053e-11
6, 8, 6, 9.434094616622701e-10
6, 8, 7, 6.638686045334907e-09
6, 8, 8, 7.539441071457986e-09
6, 8, 9, 5.728643781566234e-09
6, 9, 0, 9.48484346618983e-11
6, 9, 1, 7.063730850243033e-11
6, 9, 2, 1.421771034237906e-10
6, 9, 3, 2.008482963278269e-10
6, 9, 4, 2.118415443064237e-10
6, 9, 5, 8.34671498584072e-11
6, 9, 6, 8.485204205932462e-10
6, 9, 7, 4.944815223950627e-09
6, 9, 8, 6.450326051066213e-09
6, 9, 9, 6.607301372696384e-09
7, 0, 0, 1.50228315898282e-10
7, 0, 1, 3.89316322235711e-11
7, 0, 2, 5.455751128646824e-11
7, 0, 3, 1.145188874285274e-10
7, 0, 4, 3.218254274184318e-10
7, 0, 5, 3.246455049232821e-10
7, 0, 6, 8.492019865080636e-10
7, 0, 7, 4.722666702150491e-09
7, 0, 8, 6.289821996574574e-09
7, 0, 9, 5.946776848730906e-09
7, 1, 0, 9.377976173396974e-11
7, 1, 1, 5.104478645323596e-11
7, 1, 2, 2.961298914416766e-11
7, 1, 3, 5.06588694604293e-11
7, 1, 4, 1.002444377506961e-10
7, 1, 5, 7.960711256860264e-11
7, 1, 6, 9.746984330760711e-10
7, 1, 7, 4.604022052490109e-09
7, 1, 8, 7.039389515739458e-09
7, 1, 9, 6.96841917502411e-09
7, 2, 0, 1.819245795675606e-11
7, 2, 1, 7.681168201489896e-12
7, 2, 2, 4.600212918925983e-11
7, 2, 3, 1.046476238997229e-10
7, 2, 4, 2.389564934812682e-10
7, 2, 5, 7.627591613879048e-11
7, 2, 6, 1.459354526112122e-09
7, 2, 7, 7.360245746212968e-09
7, 2, 8, 8.495254277818276e-09
7, 2, 9, 8.57847037849524e-09
7, 3, 0, 5.782967160694596e-11
7, 3, 1, 6.246169553802972e-11
7, 3, 2, 4.328942065923158e-11
7, 3, 3, 1.287561030016704e-10
7, 3, 4, 2.145435044897948e-11
7, 3, 5, 6.064405227990122e-11
7, 3, 6, 1.299280238953315e-09
7, 3, 7, 7.716077554675849e-09
7, 3, 8, 9.568074332833021e-09
7, 3, 9, 7.522244160895752e-09
7, 4, 0, 8.111954163947388e-11
7, 4, 1, 8.234182433120019e-12
7, 4, 2, 7.204743052158236e-11
7, 4, 3, 1.060649207351716e-10
7, 4, 4, 2.352016671702817e-11
7, 4, 5, 6.376255079487692e-11
7, 4, 6, 1.163171670093277e-09
7, 4, 7, 7.876887586633075e-09
7, 4, 8, 9.596417882562491e-09
7, 4, 9, 9.890243291010847e-09
7, 5, 0, 3.603268031171503e-11
7, 5, 1, 1.312757021143529e-11
7, 5, 2, 5.365606570162385e-11
7, 5, 3, 6.65400512467329e-11
7, 5, 4, 3.798603792626309e-11
7, 5, 5, 5.954504944671868e-11
7, 5, 6, 1.04549569002188e-09
7, 5, 7, 5.613015385819153e-09
7, 5, 8, 6.866390567239478e-09
7, 5, 9, 6.613119385434629e-09
7, 6, 0, 8.844938670371505e-12
7, 6, 1, 1.111369156425734e-11
7, 6, 2, 6.099092758615754e-11
7, 6, 3, 4.389415567129795e-11
7, 6, 4, 3.478525106848096e-11
7, 6, 5, 4.689222274367744e-11
7, 6, 6, 1.390863313410762e-09
7, 6, 7, 7.928197653939151e-09
7, 6, 8, 8.265839568366573e-09
7, 6, 9, 6.959439691200942e-09
7, 7, 0, 5.297810801163649e-12
7, 7, 1, 5.777129642725587e-12
7, 7, 2, 4.684864302051395e-11
7, 7, 3, 4.259478186829924e-11
7, 7, 4, 8.413396368478487e-11
7, 7, 5, 3.701805528777413e-11
7, 7, 6, 7.092992304613688e-10
7, 7, 7, 6.472237412680215e-09
7, 7, 8, 7.797836154566085e-09
7, 7, 9, 6.969655963473542e-09
7, 8, 0, 7.408267575781391e-12
7, 8, 1, 4.159512144441546e-12
7, 8, 2, 1.210719632188662e-11
7, 8, 3, 1.619874720470982e-11
7, 8, 4, 3.367296719236634e-11
7, 8, 5, 2.091384565527932e-10
7, 8, 6, 9.683533974680358e-10
7, 8, 7, 7.573326854526385e-09
7, 8, 8, 9.189518479502112e-09
7, 8, 9, 8.33571967007174e-09
7, 9, 0, 7.126232937082477e-11
7, 9, 1, 2.3661891890292e-10
7, 9, 2, 2.089021039486383e-10
7, 9, 3, 8.747265412001326e-11
7, 9, 4, 2.762158002322934e-10
7, 9, 5, 1.910360203360995e-10
7, 9, 6, 7.438461513409322e-10
7, 9, 7, 5.279712667061176e-09
7, 9, 8, 7.118007516737634e-09
7, 9, 9, 6.667783658542703e-09
8, 0, 0, 7.326501211268877e-11
8, 0, 1, 1.81394862238532e-12
8, 0, 2, 6.729154733431386e-11
8, 0, 3, 7.414049235654474e-11
8, 0, 4, 1.459455611918514e-10
8, 0, 5, 2.459511760921629e-10
8, 0, 6, 6.246883010874171e-10
8, 0, 7, 4.132682196456017e-09
8, 0, 8, 5.60881874278607e-09
8, 0, 9, 6.240288730197108e-09
8, 1, 0, 4.606187393313421e-12
8, 1, 1, 1.204410876587403e-11
8, 1, 2, 1.222020835217608e-11
8, 1, 3, 1.857927527104675e-11
8, 1, 4, 1.109124181386534e-10
8, 1, 5, 2.911219043610913e-10
8, 1, 6, 7.208869612362889e-10
8, 1, 7, 5.842220929253017e-09
8, 1, 8, 7.820875502773106e-09
8, 1, 9, 6.530781249125539e-09
8, 2, 0, 1.984854294811988e-11
8, 2, 1, 3.449900434771003e-11
8, 2, 2, 4.976175374538094e-11
8, 2, 3, 5.036308522998745e-11
8, 2, 4, 1.642478930641289e-10
8, 2, 5, 1.180676389989088e-10
8, 2, 6, 8.239256499287251e-10
8, 2, 7, 6.532501206635288e-09
8, 2, 8, 7.930565537606071e-09
8, 2, 9, 7.068283291999933e-09
8, 3, 0, 2.997253270228817e-12
8, 3, 1, 3.545415003247676e-11
8, 3, 2, 5.676527650710916e-11
8, 3, 3, 6.493262871831718e-11
8, 3, 4, 2.398460770269839e-11
8, 3, 5, 5.33320609896748e-11
8, 3, 6, 9.575764625679994e-10
8, 3, 7, 7.853151018366589e-09
8, 3, 8, 7.28275750816465e-09
8, 3, 9, 6.116225303998135e-09
8, 4, 0, 7.313032124312002e-12
8, 4, 1, 4.904204820022073e-11
8, 4, 2, 2.442629432053423e-10
8, 4, 3, 1.011232694803077e-10
8, 4, 4, 4.656831517624305e-11
8, 4, 5, 5.955344550834241e-11
8, 4, 6, 9.931985234246099e-10
8, 4, 7, 6.112816475223326e-09
8, 4, 8, 6.674417019070233e-09
8, 4, 9, 5.514773970816123e-09
8, 5, 0, 1.299272321675371e-11
8, 5, 1, 2.266102236414547e-11
8, 5, 2, 1.68055031696257e-11
8, 5, 3, 7.726159989562831e-11
8, 5, 4, 9.944456369481713e-11
8, 5, 5, 5.233605562815491e-11
8, 5, 6, 8.776175897118321e-10
8, 5, 7, 5.061062235967029e-09
8, 5, 8, 7.103784227524557e-09
8, 5, 9, 6.136755992258713e-09
8, 6, 0, 5.270366781884306e-11
8, 6, 1, 6.030470567353063e-11
8, 6, 2, 1.363103553642109e-11
8, 6, 3, 9.769902942213804e-11
8, 6, 4, 1.014733436166537e-10
8, 6, 5, 3.575551313361736e-11
8, 6, 6, 8.01284094631427e-10
8, 6, 7, 6.197470980850994e-09
8, 6, 8, 8.976923204784271e-09
8, 6, 9, 8.236135329298122e-09
8, 7, 0, 7.277623816082102e-12
8, 7, 1, 5.632451796633298e-11
8, 7, 2, 8.093992143187734e-11
8, 7, 3, 7.742381735731385e-11
8, 7, 4, 2.825480648060985e-11
8, 7, 5, 4.562916364192482e-11
8, 7, 6, 1.346324940421084e-09
8, 7, 7, 6.46700959450186e-09
8, 7, 8, 7.823171443988031e-09
8, 7, 9, 7.353506248364283e-09
8, 8, 0, 1.83467616099442e-11
8, 8, 1, 6.171217183104094e-12
8, 8, 2, 9.243460163954609e-12
8, 8, 3, 7.35014410446766e-11
8, 8, 4, 5.555118864908337e-11
8, 8, 5, 1.463283244573788e-10
8, 8, 6, 8.521438554787153e-10
8, 8, 7, 6.350271863908574e-09
8, 8, 8, 8.02365907048852e-09
8, 8, 9, 7.438067495257883e-09
8, 9, 0, 2.548652677791807e-10
8, 9, 1, 2.691728229198276e-10
8, 9, 2, 1.230995166912052e-10
8, 9, 3, 1.24067658924254e-10
8, 9, 4, 2.266764380365327e-11
8, 9, 5, 3.048526986404454e-10
8, 9, 6, 1.082187783829625e-09
8, 9, 7, 5.71245362124273e-09
8, 9, 8, 7.677115831938863e-09
8, 9, 9, 6.93403023888095e-09
9, 0, 0, 2.33597058363344e-10
9, 0, 1, 1.408355931875604e-10
9, 0, 2, 1.971411783818766e-10
9, 0, 3, 1.002971802832597e-10
9, 0, 4, 1.417439915440966e-10
9, 0, 5, 1.688645057118521e-10
9, 0, 6, 9.725626970435997e-10
9, 0, 7, 4.940635012218308e-09
9, 0, 8, 6.502602012403713e-09
9, 0, 9, 7.563778048336189e-09
9, 1, 0, 1.235772872920649e-10
9, 1, 1, 1.220725881490026e-10
9, 1, 2, 2.720701094971467e-11
9, 1, 3, 1.252603160084576e-10
9, 1, 4, 8.397497974765855e-11
9, 1, 5, 1.115928044415071e-10
9, 1, 6, 6.919942396876877e-10
9, 1, 7, 4.25757340494215e-09
9, 1, 8, 6.920697348533622e-09
9, 1, 9, 6.650239026129157e-09
9, 2, 0, 1.212480810197647e-10
9, 2, 1, 7.003692070739476e-11
9, 2, 2, 1.465697702096591e-11
9, 2, 3, 3.712211787965103e-11
9, 2, 4, 1.868525820181155e-11
9, 2, 5, 3.679164264913659e-11
9, 2, 6, 8.32546198648032e-10
9, 2, 7, 4.250023000196279e-09
9, 2, 8, 7.64347785064956e-09
9, 2, 9, 6.915672479124169e-09
9, 3, 0, 1.627030593587264e-10
9, 3, 1, 2.131154835938176e-10
9, 3, 2, 9.249022381307981e-11
9, 3, 3, 3.270061998961182e-11
9, 3, 4, 6.295947790890821e-11
9, 3, 5, 8.877288487640911e-11
9, 3, 6, 5.846477191262522e-10
9, 3, 7, 5.639905431564785e-09
9, 3, 8, 8.163361542301573e-09
9, 3, 9, 8.350389713029926e-09
9, 4, 0, 3.430092668232909e-11
9, 4, 1, 7.823204584145316e-11
9, 4, 2, 1.581375308479238e-10
9, 4, 3, 1.344762495802954e-10
9, 4, 4, 1.983624514645399e-10
9, 4, 5, 5.414310319529214e-11
9, 4, 6, 9.33350063903049e-10
9, 4, 7, 4.427632482872923e-09
9, 4, 8, 6.345725278578129e-09
9, 4, 9, 7.071288443682988e-09
9, 5, 0, 2.4212221116926e-10
9, 5, 1, 1.769362260872764e-11
9, 5, 2, 1.35119563107744e-11
9, 5, 3, 1.804058812060472e-11
9, 5, 4, 1.380183189958473e-10
9, 5, 5, 1.228850216028476e-10
9, 5, 6, 3.304294338146718e-10
9, 5, 7, 3.818681815204172e-09
9, 5, 8, 7.156039760758404e-09
9, 5, 9, 6.690532572406482e-09
9, 6, 0, 6.826585824404319e-11
9, 6, 1, 1.350917121223372e-11
9, 6, 2, 4.593676827813198e-11
